MonoAnion	MonoAnion	Dianion	Dianion
22213.8303307639	2.43538662367635E-4	22197.5582685905	7.2103994206183E-4
22197.5582685905	2.33148817946225E-4	22181.3100281703	7.27419639237371E-4
22181.3100281703	2.69513375928564E-4	22164.5942771018	6.78707666656179E-4
22164.5942771018	2.09515074310652E-4	22148.3942414175	6.6598560289343E-4
22148.3942414175	2.66394984277465E-4	22132.2178695527	6.69625479086145E-4
22132.2178695527	1.64664095369953E-4	22115.5760001769	6.79731197545029E-4
22115.5760001769	1.41188288476303E-4	22099.4475138122	6.00926633832417E-4
22099.4475138122	1.74180457510419E-4	22083.3425347261	6.87233751887446E-4
22083.3425347261	2.09412118978544E-4	22066.7740583004	6.92840403251416E-4
22066.7740583004	1.52981449252354E-4	22050.7166482911	5.81574510283087E-4
22050.7166482911	1.61474801193537E-4	22034.6825903973	6.29509447030065E-4
22034.6825903973	2.15533146416904E-4	22018.1870224806	6.22336797112585E-4
22018.1870224806	1.69059330232893E-4	22002.200220022	6.40805175599409E-4
22002.200220022	2.39602226205853E-4	21986.2366158785	6.39113259983384E-4
21986.2366158785	2.26496041313383E-4	21969.8134762836	5.68167597005031E-4
21969.8134762836	1.8942126084712E-4	21953.896816685	5.16098183420921E-4
21953.896816685	2.22268028356618E-4	21938.0032029485	5.14796563887433E-4
21938.0032029485	2.29604296417249E-4	21921.6520156959	5.97387800396194E-4
21921.6520156959	2.1300370061911E-4	21905.8050383352	5.90898862823323E-4
21905.8050383352	1.85322938888511E-4	21889.9809557166	5.28075853125397E-4
21889.9809557166	1.45901491528711E-4	21873.7012489883	5.6282269366608E-4
21873.7012489883	1.49270096146112E-4	21857.9234972678	5.41631548667251E-4
21857.9234972678	2.41136528304738E-4	21842.1684904877	5.13798378198057E-4
21842.1684904877	1.96007596049306E-4	21825.9597965821	5.46219727399285E-4
21825.9597965821	2.32796283571602E-4	21810.2508178844	5.37085309909497E-4
21810.2508178844	2.06422671830213E-4	21794.5644356298	5.14905382319093E-4
21794.5644356298	2.01807572020163E-4	21778.4262909162	5.09345472044573E-4
21778.4262909162	2.30659474063123E-4	21762.7856365615	5.41747420839855E-4
21762.7856365615	1.826989479337E-4	21747.1674314421	4.91618250344775E-4
21747.1674314421	2.64151772974512E-4	21731.0993763174	5.16722655669465E-4
21731.0993763174	2.13705424243207E-4	21715.5266015201	4.72120793582304E-4
21715.5266015201	2.56089848237269E-4	21699.9761300263	5.02408717209989E-4
21699.9761300263	2.58555420319326E-4	21683.9777088709	4.7859124522836E-4
21683.9777088709	2.08711419158254E-4	21668.4723726977	5.07653744535946E-4
21668.4723726977	1.90947975922913E-4	21652.9891951584	4.26785274489052E-4
21652.9891951584	2.60543325870075E-4	21637.0599562931	5.18397263376676E-4
21637.0599562931	1.62871116811398E-4	21621.6216216216	4.44559750208754E-4
21621.6216216216	1.81451280318571E-4	21606.2053021628	4.80941420883242E-4
21606.2053021628	2.24561282784469E-4	21590.3447978064	4.29641807587086E-4
21590.3447978064	2.35275568281243E-4	21574.9730312837	4.35480447844628E-4
21574.9730312837	2.240290207616E-4	21559.6231377876	4.80842519851021E-4
21559.6231377876	2.55796718171121E-4	21543.8309240149	4.268906347765E-4
21543.8309240149	1.64405421736699E-4	21528.5252960172	4.43316266122494E-4
21528.5252960172	1.83765163173614E-4	21513.2414000818	4.57689312668864E-4
21513.2414000818	1.63457217036022E-4	21497.5170367823	4.29709693140111E-4
21497.5170367823	2.51272590268431E-4	21482.2771213749	4.67562914509983E-4
21482.2771213749	2.33017065785518E-4	21467.0587982741	3.98956533925141E-4
21467.0587982741	2.14092148999675E-4	21451.4018491108	4.60685710979002E-4
21451.4018491108	1.8666910054238E-4	21436.2272240086	4.86994320363683E-4
21436.2272240086	2.08708251241577E-4	21421.074052653	4.70320663380092E-4
21421.074052653	2.13409361243913E-4	21405.4840850226	5.22186681286556E-4
21405.4840850226	1.94520604961745E-4	21390.3743315508	4.47348638342931E-4
21390.3743315508	2.41393884955813E-4	21375.2858944488	4.20669020099372E-4
21375.2858944488	2.06674942756685E-4	21359.7624794412	4.66203677951467E-4
21359.7624794412	1.98370438229061E-4	21344.7171824973	4.95081131956446E-4
21344.7171824973	1.86071974114817E-4	21329.6930657168	4.30591936444999E-4
21329.6930657168	2.11466950999691E-4	21314.2357780762	4.18873816017354E-4
21314.2357780762	2.45496458412143E-4	21299.2545260916	4.6733882729231E-4
21299.2545260916	2.72061847813341E-4	21284.2943192218	4.82313866208477E-4
21284.2943192218	2.56608295254736E-4	21268.9027373078	5.04923885007197E-4
21268.9027373078	2.29931627555675E-4	21253.9851222104	4.02790543535663E-4
21253.9851222104	2.20217690293325E-4	21239.0884183251	4.72881077075283E-4
21239.0884183251	2.59643359775647E-4	21223.7621240741	5.43361436908573E-4
21223.7621240741	2.84084607025936E-4	21208.9077412513	4.83582352575025E-4
21208.9077412513	2.73000310276981E-4	21194.0741368713	4.89546196341077E-4
21194.0741368713	3.15681256382438E-4	21178.8127157592	4.64654571671982E-4
21178.8127157592	2.86211175169129E-4	21164.0211640212	4.26451007659265E-4
21164.0211640212	2.64299295558388E-4	21149.2502590783	4.45214689008288E-4
21149.2502590783	2.33800816769444E-4	21134.0533000824	4.5971194763349E-4
21134.0533000824	2.54078139950167E-4	21119.3241816262	4.46319029048973E-4
21119.3241816262	2.22158172901728E-4	21104.6155794272	4.46909052736084E-4
21104.6155794272	2.40572964856166E-4	21089.48267499	4.30484570803072E-4
21089.48267499	2.69873728196647E-4	21074.8155953635	4.49653333725373E-4
21074.8155953635	2.05687387185536E-4	21060.1689025546	4.27744228322378E-4
21060.1689025546	2.45984214286616E-4	21045.0996485468	4.92979807702002E-4
21045.0996485468	2.88738711191984E-4	21030.4942166141	4.62792983666767E-4
21030.4942166141	2.42375803674662E-4	21015.9090431457	5.11252756122063E-4
21015.9090431457	2.48461548410859E-4	21000.9030388307	4.97148611026611E-4
21000.9030388307	2.62139941420636E-4	20986.3588667366	4.90128673237633E-4
20986.3588667366	2.7367313602616E-4	20971.8348258289	5.44568593255887E-4
20971.8348258289	1.94571806878026E-4	20956.8916738269	4.86348539459759E-4
20956.8916738269	2.47966588863539E-4	20942.4083769633	4.33473438293313E-4
20942.4083769633	2.06113772209062E-4	20927.9450850721	4.83755443576078E-4
20927.9450850721	2.43024172573336E-4	20913.0643913253	4.90399046653885E-4
20913.0643913253	2.57299719516144E-4	20898.6415882968	5.13360938722381E-4
20898.6415882968	2.15518980773936E-4	20884.2386650795	4.83173552465502E-4
20884.2386650795	2.25862883938942E-4	20869.4200388171	5.12204586367431E-4
20869.4200388171	3.42176178062075E-4	20855.0573514077	5.27647073584821E-4
20855.0573514077	2.69395477105876E-4	20840.7144196903	5.85962991633614E-4
20840.7144196903	3.25343516370505E-4	20825.9574733948	5.49392463569915E-4
20825.9574733948	2.72378275780538E-4	20811.6545265349	5.09511483077783E-4
20811.6545265349	3.06472047895564E-4	20797.3712122788	4.68713466828408E-4
20797.3712122788	2.53489445157861E-4	20782.6755616518	4.67088866358992E-4
20782.6755616518	2.73630846476129E-4	20768.4319833853	4.90332766739159E-4
20768.4319833853	3.26884162682507E-4	20754.2079156549	4.67608032701223E-4
20754.2079156549	2.91708242262872E-4	20739.573179584	5.25479902973625E-4
20739.573179584	2.68754524555331E-4	20725.3886010363	5.67080617912101E-4
20725.3886010363	2.64812957363863E-4	20711.2234119669	4.87228170503636E-4
20711.2234119669	2.97707160525088E-4	20696.6492124925	5.87626926275348E-4
20696.6492124925	2.48562500017532E-4	20682.5232678387	5.1858472586386E-4
20682.5232678387	2.41631567164193E-4	20668.4165926048	4.8120888532116E-4
20668.4165926048	2.81631844323454E-4	20653.9025548877	5.04730273546909E-4
20653.9025548877	3.8442432077581E-4	20639.8348813209	4.94020985308097E-4
20639.8348813209	3.05900349367217E-4	20625.7863581049	5.43105132097364E-4
20625.7863581049	3.90522690875874E-4	20611.3321103943	5.31257424622282E-4
20611.3321103943	4.09800741369778E-4	20597.3223480947	6.02905368832378E-4
20597.3223480947	3.45582737523902E-4	20583.3316180557	5.67126666603057E-4
20583.3316180557	4.13025077271302E-4	20568.9367916572	5.24484417733839E-4
20568.9367916572	4.88787771843721E-4	20554.9845837616	5.32021573329377E-4
20554.9845837616	3.90286555464671E-4	20541.0512910051	5.47817918678612E-4
20541.0512910051	4.31877752886939E-4	20526.7155202496	5.63072482486333E-4
20526.7155202496	5.06105437975295E-4	20512.8205128205	5.02933465795844E-4
20512.8205128205	4.5218155873577E-4	20498.9443043683	5.09221423845359E-4
20498.9443043683	5.33716086146353E-4	20484.6672265809	5.07622707710376E-4
20484.6672265809	5.19459825272393E-4	20470.8290685773	4.91951461301933E-4
20470.8290685773	5.56700340916156E-4	20457.0095943375	5.26886682343008E-4
20457.0095943375	5.29296144937114E-4	20442.7908498068	5.4309430525013E-4
20442.7908498068	5.3419464133648E-4	20429.0091930541	5.1976638340031E-4
20429.0091930541	5.62388381838242E-4	20415.2461057918	5.43226103542707E-4
20415.2461057918	6.10447973650031E-4	20401.08533774	5.71984031486615E-4
20401.08533774	7.34560728198666E-4	20387.3598369011	5.35423297858782E-4
20387.3598369011	8.01864919466654E-4	20373.6527922091	5.24351169029112E-4
20373.6527922091	7.76085186731072E-4	20359.5496467618	5.70358060614999E-4
20359.5496467618	7.79215062013445E-4	20345.8799593082	5.28963118091666E-4
20345.8799593082	8.02003480972068E-4	20332.2286155786	5.24889096664483E-4
20332.2286155786	9.08465235583858E-4	20318.1827417356	5.57474654365963E-4
20318.1827417356	9.16388099648665E-4	20304.5685279188	5.82936516201497E-4
20304.5685279188	9.02430721493083E-4	20290.9725463141	5.19549144930161E-4
20290.9725463141	8.54290978738361E-4	20276.9835959203	5.25618878769808E-4
20276.9835959203	8.72945360580551E-4	20263.4245187437	5.64521082169166E-4
20263.4245187437	9.08101569693549E-4	20249.8835631695	5.9903177724883E-4
20249.8835631695	8.81801586902039E-4	20235.9511908857	5.84013312446616E-4
20235.9511908857	8.95184833816215E-4	20222.4469160768	5.80320965352826E-4
20222.4469160768	8.04572830781051E-4	20208.9606531536	6.17742590413609E-4
20208.9606531536	8.89358675293819E-4	20195.0845164287	5.46522536925706E-4
20195.0845164287	8.03609799659559E-4	20181.6347124117	5.9757685715663E-4
20181.6347124117	8.01893800100369E-4	20168.2028114475	5.8029182840581E-4
20168.2028114475	8.76179377166843E-4	20154.38257049	5.85198568571924E-4
20154.38257049	8.94295985914501E-4	20140.9869083585	5.78302891306773E-4
20140.9869083585	9.77902470256824E-4	20127.609041322	6.78089872164542E-4
20127.609041322	0.00103026955972682	20113.8443590723	6.37886034344148E-4
20113.8443590723	0.00104742928250207	20100.5025125628	6.24210432376112E-4
20100.5025125628	0.00113464116219032	20087.1783540566	6.44163172992701E-4
20087.1783540566	0.00113450155239061	20073.4688961599	6.45242872836848E-4
20073.4688961599	0.0010831789827173	20060.1805416249	6.58249889108285E-4
20060.1805416249	0.00106728333036915	20046.9097688591	6.6037271158073E-4
20046.9097688591	0.00107064410648858	20033.255203638	7.11439870896272E-4
20033.255203638	0.00105177988218922	20020.02002002	7.38121656186237E-4
20020.02002002	0.0010307894315172	20006.8023127863	7.40173612854024E-4
20006.8023127863	0.00101427171447855	19993.2023112142	7.73690785116994E-4
19993.2023112142	9.46459690202197E-4	19980.01998002	7.91749454884345E-4
19980.01998002	0.00101230840087725	19966.8550206657	7.86785541991387E-4
19966.8550206657	9.96711983780513E-4	19953.3092563402	8.24767639450099E-4
19953.3092563402	9.21798297756153E-4	19940.1794616152	8.37829270401349E-4
19940.1794616152	9.30611076965632E-4	19927.0669350178	8.55683152163678E-4
19927.0669350178	9.72224429643537E-4	19913.5750841349	8.93234798995357E-4
19913.5750841349	0.00104924080535507	19900.4975124378	8.8389214957271E-4
19900.4975124378	9.63040214595997E-4	19887.4371059802	8.98305964018168E-4
19887.4371059802	0.00103082813384853	19873.9988473081	9.22280226490577E-4
19873.9988473081	9.63536083597047E-4	19860.9731876862	8.80068919894655E-4
19860.9731876862	9.24685140368855E-4	19847.9645912312	9.18692285346067E-4
19847.9645912312	8.96982449940208E-4	19834.5796060853	9.40714239878583E-4
19834.5796060853	8.89966141895445E-4	19821.6055500496	9.80523858980459E-4
19821.6055500496	8.53213457767902E-4	19808.6484559159	9.98230609868652E-4
19808.6484559159	8.85911597431745E-4	19795.3164281331	0.00100565477937572
19795.3164281331	9.27421885078016E-4	19782.393669634	0.00104767934413207
19782.393669634	8.90275240557274E-4	19769.4877725718	0.00105076541708359
19769.4877725718	8.50363457737846E-4	19756.2083884861	0.00102977471521819
19756.2083884861	9.41763824502171E-4	19743.3366238894	0.00104374316218127
19743.3366238894	0.0010165992233281	19730.4816210564	0.0010503292241885
19730.4816210564	9.47214617905141E-4	19717.2545694737	0.00109342445591969
19717.2545694737	9.36998785571931E-4	19704.4334975369	0.00109528416751945
19704.4334975369	9.97714991452308E-4	19691.6290884745	0.00112013379454307
19691.6290884745	9.72777067710899E-4	19678.454060649	0.00114139598236949
19678.454060649	8.85690644845468E-4	19665.6833824975	0.00115617247355432
19665.6833824975	8.72291657734585E-4	19652.9292691076	0.00120167671880264
19652.9292691076	8.35664314208163E-4	19639.8059587171	0.00119993260702353
19639.8059587171	7.957145401157E-4	19627.0853778214	0.00118153135002945
19627.0853778214	7.53102465696935E-4	19614.381264343	0.0012078837791412
19614.381264343	6.29869600556177E-4	19601.3093674657	0.00112423300305173
19601.3093674657	5.8072325869329E-4	19588.638589618	0.00116021352421579
19588.638589618	6.24146694005895E-4	19601.3093674657	0.00116698354782118
19575.9841826048	5.95324057336763E-4	19588.638589618	0.00117068016688994
19562.9633976955	5.67133946564707E-4	19575.9841826048	0.00116574254935129
19550.3421309873	5.28502706859503E-4	19562.9633976955	0.00117112592491865
19537.7371392845	5.1643958396275E-4	19550.3421309873	0.00113985432298132
19524.7671671515	5.80928251540361E-4	19537.7371392845	0.00118766817050764
19512.1951219512	5.79916470720625E-4	19524.7671671515	0.001192849784699
19499.6392566737	5.05893292552925E-4	19512.1951219512	0.00116803431229644
19486.719800456	5.29329130247303E-4	19499.6392566737	0.00113162794409744
19474.1966893866	5.579108976941E-4	19486.719800456	0.00112943695704827
19461.6896638966	5.26503575543704E-4	19474.1966893866	0.00116648916927733
19448.820429041	4.607260299296E-4	19461.6896638966	0.00113321489103863
19436.3459669582	5.57139731630355E-4	19448.820429041	0.00110190072626075
19423.8874968436	5.1980548006606E-4	19436.3459669582	0.00113335794560968
19601.3093674657	7.52974460939217E-4	19423.8874968436	0.00113355949243556
19582.1176101984	7.24752844694855E-4	19411.0681910826	0.00112966514715289
19556.8419611601	6.12204774218513E-4	19398.6420950533	0.00112734372269711
19531.25	5.97111999406408E-4	19386.231898106	0.00105291820503231
19505.724930267	5.57540888915354E-4	19373.4622314354	0.00105396733074872
19480.6459782206	4.64656225426178E-4	19361.0842207164	9.71011647052869E-4
19461.6896638966	4.96886347134623E-4	19348.7220169108	9.29992171780083E-4
19436.3459669582	4.26664777429534E-4	19336.0017015681	0.00102388142965561
19411.0681910826	3.89419985917972E-4	19323.6714975845	9.99967063509025E-4
19386.231898106	3.55007427624861E-4	19311.357009057	9.95797257721782E-4
19367.4587957314	3.45514437626338E-4	19298.6857594998	9.80999470003857E-4
19342.3597678917	3.04048206261869E-4	19286.4030858245	9.79324157242734E-4
19317.3257094288	2.46551504922221E-4	19274.1360368521	9.23490878129644E-4
19292.7285706017	3.84039556321836E-4	19261.5135697363	9.663814254636E-4
19274.1360368521	2.77623744932494E-4	19249.2781520693	9.8271125215302E-4
19249.2781520693	3.52599237722109E-4	19237.0582690495	0.00101551927777749
19224.4843032086	2.44049489171786E-4	19224.4843032086	0.0010429167643207
19200.1228807864	2.12090299895797E-4	19212.2958693564	0.0010626736360371
19175.4554170662	2.16693464350642E-4	19200.1228807864	0.0010947741250677
19150.8512553383	2.34178972590508E-4	19187.5971372105	0.00105431656739495
19126.6759749823	3.17175910135705E-4	19175.4554170662	9.98639267018807E-4
19108.4019643437	2.80464026951428E-4	19163.3290535232	9.89013457532096E-4
19083.9694656489	2.71674004321707E-4	19150.8512553383	9.62180379575492E-4
19059.5993672213	2.93347301937218E-4	19138.7559808612	9.52125889372125E-4
19035.6537795291	3.3138427273189E-4	19126.6759749823	9.2479628187017E-4
19011.4068441065	3.33683241902207E-4	19114.2458474301	9.36207165755733E-4
18993.3523266857	4.3032151044844E-4	19102.1967526266	8.58740684069846E-4
18969.212967354	4.68910616651417E-4	19090.162839089	8.17868185024869E-4
18945.4938142963	4.10448655111845E-4	19077.7801095065	7.86918313729862E-4
18921.4758751183	4.43433570833397E-4	19065.7769304099	7.74238273778605E-4
18897.5187557874	5.00716515562161E-4	19053.788845912	7.55924250043759E-4
18879.6798006306	5.97948085227001E-4	19041.4532437116	6.91072761716761E-4
18856.1838855052	7.39361863786971E-4	19029.4957183635	6.45280375670021E-4
18832.3917137476	0.00100191187869676	19017.5532016051	5.92045613391406E-4
18808.659506837	9.3261076605603E-4	19005.2644582549	5.733343383738E-4
18785.3399207259	8.92746831491313E-4	18993.3523266857	5.37096520726305E-4
18761.7260787992	8.83989338174596E-4	18981.4551183494	5.0161902493415E-4
18744.1424554827	9.17691722411952E-4	18969.212967354	4.46187267652709E-4
18720.6320085366	8.81119593573753E-4	18957.345971564	4.32478699258318E-4
18697.5300562796	8.67958618406543E-4	18945.4938142963	4.21634739950622E-4
18674.1363211951	8.39272063183566E-4	18933.2979911771	4.36839922734017E-4
18656.7164179104	7.19977868294902E-4	18921.4758751183	4.15652849132159E-4
18633.4246371141	6.59209047987483E-4	18909.668513511	4.11515765178821E-4
18610.5372862115	5.0562015115416E-4	18897.5187557874	4.40659574678069E-4
18587.3605947955	4.64689182513155E-4	18885.7412653447	4.57955696646342E-4
18564.2415579111	3.5676009836885E-4	18873.9784459166	4.28302661781878E-4
18547.0259843834	3.66609899247422E-4	18861.8744930871	4.50810582561424E-4
18524.3502584147	3.51518504394112E-4	18850.1413760603	4.22522718808834E-4
18501.3876040703	3.45732142145648E-4	18838.4228472392	4.04688072436432E-4
18478.4818079347	3.15797072622631E-4	18826.3644407628	4.06957403806148E-4
18455.9732757507	2.9675200875493E-4	18814.6754468485	4.11721828854688E-4
18438.9578301034	2.15177376720851E-4	18803.0009589531	3.91865146085274E-4
18416.2062615101	2.6892856026186E-4	18790.9878422309	3.86611689668521E-4
18393.5107694006	2.50456254229287E-4	18779.3427230047	3.51576052575803E-4
18371.2086418165	2.09957323879047E-4	18767.7120282266	3.38250844621754E-4
18348.623853211	1.65034279914535E-4	18755.7439465836	3.70231285614877E-4
18331.8056828598	1.5122780152361E-4	18744.1424554827	3.73957830196234E-4
18309.3176117326	1.34431154469048E-4	18732.5553078695	3.91362903043389E-4
18287.2190625971	1.20805765671444E-4	18720.6320085366	3.72079867310835E-4
18264.8401826484	1.54396264446709E-4	18709.0739008419	4.24635480433064E-4
18242.5160078078	1.36008035451984E-4	18697.5300562796	3.86902782974061E-4
18220.5783211559	1.50948508114889E-4	18685.6512883757	4.38939360384976E-4
18198.3621474067	1.3661337726061E-4	18674.1363211951	4.91986472806581E-4
18181.8181818182	1.50124958758535E-4	18662.6355373906	4.93738691807038E-4
18159.6963698767	1.26646743561853E-4	18650.8010519052	4.89574164562883E-4
18137.9573032485	1.38256261269631E-4	18639.3289841566	5.31401093389351E-4
18115.9420289855	1.16977809358642E-4	18627.8710206211	5.00261704649766E-4
18093.9801328098	1.04591808866007E-4	18616.0805703967	4.94440513582708E-4
18077.6253231376	1.31645732020646E-4	18604.6511627907	5.30798924074401E-4
18056.0821912861	1.23059785657311E-4	18593.2357808229	5.2309126479863E-4
18034.265103697	1.31213889991252E-4	18581.4891205381	5.39393004437935E-4
18012.5006754688	1.19716109004015E-4	18570.1021355617	5.4828845160741E-4
17991.1123904791	9.89427924844813E-5	18558.7290982314	5.3450324049817E-4
17974.9429295562	1.24369663065269E-4	18547.0259843834	5.2409474916648E-4
17953.3213644524	1.09721809200473E-4	18535.6811862836	5.54027228646073E-4
17931.7517528287	1.61117756100926E-4	18524.3502584147	5.80224774193281E-4
17910.5546898787	1.32462645468134E-4	18512.690449303	5.87934910039251E-4
17889.0876565295	1.39127875479565E-4	18501.3876040703	5.86169500694302E-4
17867.6720210124	1.55696309349156E-4	18490.0985522253	6.54122522724803E-4
17851.723583912	1.66620341417748E-4	18478.4818079347	6.99840608341614E-4
17830.7151899863	1.23165967100805E-4	18467.2206832872	7.75973912979639E-4
17809.4390026714	1.33854291723451E-4	18455.9732757507	7.61378390054613E-4
17788.2135297152	1.80050120024916E-4	18444.3993581349	7.95835577146877E-4
17767.3542632767	1.40002118162261E-4	18433.1797235023	8.30538509297367E-4
17751.5843289014	1.49776901150161E-4	18421.9737302655	8.69107610497872E-4
17730.4964539007	1.8821104207981E-4	18410.4424029309	9.34290078132472E-4
17709.4586218499	1.94518945568705E-4	18399.2640294388	9.05100666391114E-4
17688.7835423558	1.9518990588096E-4	18388.0992221834	9.22278243825199E-4
17673.1527137126	2.41461581605919E-4	18376.6102504732	9.82010393388539E-4
17652.2506619594	3.15065988420024E-4	18365.4729109275	0.00102398560648328
17631.3979935469	2.60629323962773E-4	18354.3490630105	0.00101403779329356
17610.904672173	3.19946504005996E-4	18342.9022139883	9.84984116492802E-4
17590.1495162709	2.38737259534361E-4	18331.8056828598	0.0010212753480831
17569.4432243442	2.01952836063427E-4	18320.7225692981	0.00100026133468643
17549.0935893161	2.7671227180459E-4	18309.3176117326	0.00100305245632009
17533.7085546964	2.9115433994212E-4	18298.2616651418	0.00100664511357785
17513.1348511384	3.0141192312901E-4	18287.2190625971	0.00113251323142903
17492.6093725401	3.45987881237638E-4	18275.8557669463	0.0011363472059842
17472.4372302693	4.5392373913766E-4	18264.8401826484	0.0012035664648028
17452.0069808028	6.09522383637732E-4	18253.837869412	0.00116024660768113
17436.79163034	8.05686492988266E-4	18242.5160078078	0.00113408359394909
17416.4446069979	8.94886691610063E-4	18231.5405651778	0.00107095112722605
17396.4476453908	9.66823329956831E-4	18220.5783211559	0.00106358293900076
17376.1946133797	8.21535977218163E-4	18209.297667389	0.0010546562492104
17355.9886838954	5.2787775255575E-4	18198.3621474067	9.76840236453089E-4
17340.940225779	4.94842209208001E-4	18187.4397541058	9.02065470054128E-4
17321.1161727262	4.86283972789045E-4	18176.2000836105	8.85214380354283E-4
17301.0380622837	5.3819159148095E-4	18165.3042688465	8.47403015778284E-4
17281.0064458154	4.9969968185396E-4	18154.4215093586	7.92070332393126E-4
17261.3191100064	5.73213987031937E-4	18143.2225991981	7.20181592028604E-4
17246.4342997085	6.37156864009836E-4	18132.3662737987	6.43710503695045E-4
17226.5288544358	6.86896190507418E-4	18121.5229327873	5.80907640975979E-4
17206.6693050226	8.0563013516518E-4	18110.3645616386	5.161945574323E-4
17187.1508859976	7.32410329638631E-4	18099.5475113122	4.89677039225231E-4
17167.3819742489	6.86586800728277E-4	18088.7433749977	4.65595130537478E-4
17147.6584872336	4.78425524776183E-4	18077.6253231376	4.04607814581459E-4
17128.2736412997	4.38105429193194E-4	18066.84733514	3.63706112082798E-4
17113.6173052898	4.26012120414913E-4	18056.0821912861	3.40121705509997E-4
17094.0170940171	5.9332449836631E-4	18045.004240576	3.40004776073614E-4
17074.461727594	7.86138369273345E-4	18034.265103697	3.0996398604454E-4
17055.2419286068	5.7101503520531E-4	18023.5387415965	2.89199689315874E-4
17035.7751277683	4.31292003552211E-4	18012.5006754688	2.60086407624234E-4
17021.2765957447	3.8413748612078E-4	18001.800180018	2.68282055603603E-4
17001.8872094803	3.79331676272201E-4	17991.1123904791	2.55230528502234E-4
16982.8303585075	3.43019038540768E-4	17980.1139939227	2.55592249251056E-4
16963.5284139101	3.97206315532762E-4	17969.4519317161	2.34697994088129E-4
16944.2702949997	3.50604477603413E-4	17958.8025070488	2.42327891714472E-4
16929.9270320145	2.33781257850647E-4	17947.8435665955	2.05562684284303E-4
16911.0310655641	2.01613082239862E-4	17937.2197309417	2.01408740852904E-4
16891.8918918919	1.87417191384899E-4	17926.6084649445	1.91987043197802E-4
16872.7959910237	2.19990593974347E-4	17915.6887686547	1.96347907632099E-4
16854.0272698161	2.06230943883195E-4	17905.102954342	1.82612871794613E-4
16839.836316791	2.62458184786666E-4	17894.5296422884	1.71792695441723E-4
16820.8578637511	1.95564143871448E-4	17883.6489797378	1.52175586596814E-4
16801.9221398928	2.28906090133715E-4	17873.1009830206	1.61361482304561E-4
16783.3106758639	1.74594578365495E-4	17862.5654216459	1.48933656250391E-4
16769.2385088793	1.54569554441266E-4	17851.723583912	1.71151431821621E-4
16750.418760469	7.74654816543906E-5	17841.2132024978	1.52167994371418E-4
16731.641206686	1.32084506634959E-4	17830.7151899863	1.40415121767092E-4
16713.1850316715	1.24495147770555E-4	17819.9119696349	1.61304855265324E-4
16694.4908180301	1.04144577158105E-4	17809.4390026714	1.57861313107247E-4
16680.5671392827	8.90598097603163E-5	17798.9783386434	1.73122843535227E-4
16661.9457820284	1.23735015729138E-4	17788.2135297152	1.43333914795797E-4
16643.6429605712	1.43669520098581E-4	17777.7777777778	1.71416940663884E-4
16625.1039068994	1.36851226300803E-4	17767.3542632767	1.40080088508331E-4
16606.6061079097	2.99171094300663E-4	17756.6276612746	1.33380115395823E-4
16592.8285794879	2.77876604060787E-4	17746.2289263531	1.64699133778935E-4
16574.6772081614	2.3355850632251E-4	17735.8423638331	1.63657412728326E-4
16556.2913907285	1.91542289693128E-4	17725.1537657089	1.682716002962E-4
16537.9463178262	2.22553496087642E-4	17714.7918511957	1.50996629291678E-4
16519.9147572399	2.61670604405239E-4	17704.442044509	1.73923458016852E-4
16501.6501650165	2.70393053234716E-4	17693.7912486509	1.69427335643385E-4
16483.4259152422	1.49930461246723E-4	17683.465959328	1.55553610079164E-4
16465.512983057	9.46104998279943E-5	17673.1527137126	1.64049296816556E-4
16451.9684780284	1.325159933642E-4	17662.5395199322	1.71255178657553E-4
16433.8537387017	8.31354080613748E-5	17652.2506619594	1.47052085403441E-4
16415.7788466274	1.11908699595896E-4	17641.973784027	1.69539221703883E-4
16398.0125608776	1.23623960431044E-4	17631.3979935469	1.85072355290112E-4
16380.0163800164	7.95304369880891E-5	17621.1453744493	1.94585540977328E-4
16366.612111293	1.39367826047226E-4	17610.904672173	2.18602168675118E-4
16348.684748312	1.12358785671871E-4	17600.3660876146	1.89394411027316E-4
16331.0633155325	1.01809817298314E-4	17590.1495162709	2.26292992543059E-4
16313.2137030995	1.09775785126733E-4	17579.9447989733	2.16426251980302E-4
16295.4030667949	9.98711491108066E-5	17569.4432243442	2.48915132216829E-4
16282.1368676425	1.58758596200717E-4	17559.2625109745	2.65030858038772E-4
16264.6585234943	1.82538021585408E-4	17549.0935893161	2.56918880935758E-4
16246.953696182	1.20511636890343E-4	17538.6288299981	2.83239589638349E-4
16229.2873719915	1.95907297746043E-4	17528.4837861525	2.86416356284448E-4
16211.9222476209	2.13251345520074E-4	17518.3504721195	2.63998970295488E-4
16194.3319838057	1.37795615292939E-4	17507.9223348565	2.58883995927367E-4
16176.779850203	1.78924462443871E-4	17497.8127734033	2.68585763309256E-4
16163.706014515	2.71638172620385E-4	17487.7148802966	2.87317649612802E-4
16146.4808744934	2.32802453685874E-4	17477.3231731828	2.7599196785729E-4
16129.0322580645	2.67084744529483E-4	17467.2489082969	2.63972890196812E-4
16111.6213124527	3.49246226289088E-4	17457.1862507201	2.42282017763162E-4
16098.6525427822	4.33723694799065E-4	17446.8307831882	2.63759055856227E-4
16081.5657012367	3.76660717843123E-4	17436.79163034	2.85287241643335E-4
16064.2570281125	3.07001301583044E-4	17426.7640241883	2.72533075871834E-4
16046.98557376	3.71507102720689E-4	17416.4446069979	2.71256997627731E-4
16030.0081753042	2.70140139200811E-4	17406.4403829417	2.84523779677147E-4
16012.8102481986	3.1437501448719E-4	17396.4476453908	3.3848232678221E-4
16000	3.67940566655941E-4	17386.1640906167	3.43671987814108E-4
15982.8663672543	3.55546891994004E-4	17376.1946133797	4.09656238454891E-4
15966.024300289	3.98713687488762E-4	17366.2365628745	4.57359202576885E-4
15948.9633173844	4.46834839634425E-4	17355.9886838954	5.2852965020673E-4
15931.9387576274	4.34700445086079E-4	17346.0537727667	6.35280091075884E-4
15915.2037941846	5.67604402296367E-4	17336.1302290103	7.80430220997414E-4
15898.2511923688	6.04450704858371E-4	17325.9178404976	8.9006252398782E-4
15885.6235107228	0.00108427031182365	17316.0173160173	8.87773805174342E-4
15868.7338337274	0.00113190532441077	17306.1280999602	8.19982470657162E-4
15852.1313190558	0.00117620722268121	17295.9510178667	8.68302774552184E-4
15835.3127474268	7.06034481104327E-4	17286.084701815	0.00105598510098283
15818.529825838	3.59343531705704E-4	17276.2296356443	0.00114228473321815
15806.0284192391	2.88459037157057E-4	17266.0876771932	0.00108066266354842
15789.556787141	1.87764496292601E-4	17256.2553925798	9.4369074674704E-4
15772.8706624606	1.59883637424942E-4	17246.4342997085	9.12535724811337E-4
15756.2197677533	5.4585033574794E-5	17236.3272833825	7.7956962250302E-4
15743.8166160241	1.36291115884549E-4	17226.5288544358	6.59328911339796E-4
15727.4743248982	1.02368961766065E-4	17216.7415594925	6.09956838079311E-4
15710.9190887667	1.10570946700181E-4	17206.6693050226	5.9410517477216E-4
15694.398669115	3.55022856771578E-5	17196.9045571797	4.94093696816302E-4
15682.092618439	1.39300927114868E-4	17187.1508859976	5.39674032077151E-4
15665.8781507997	9.82968212063656E-5	17177.1132143532	5.66180859191364E-4
15649.4522691706	1.29391764083179E-4	17167.3819742489	5.80955062220088E-4
15633.0607969734	1.70425672454728E-4	17157.6617538562	5.75172091569155E-4
15616.9475114394	7.7920585966372E-5	17147.6584872336	6.05449920028231E-4
15604.7625735374	6.64940604711996E-5	17137.9605826907	5.6611397377508E-4
15588.4645362432	9.64279465772703E-5	17128.2736412997	5.96224956113716E-4
15572.2005076537	1.11547977160717E-4	17118.3046031121	6.6543037882106E-4
15556.2123734113	1.41009358453841E-5	17108.6398631309	8.01595077198912E-4
15540.0155400155	1.39638286796428E-4	17098.9860301284	8.91782835662199E-4
15527.950310559	1.14543182070992E-4	17089.0510449955	8.32082197918391E-4
15511.8122450246	7.71800123841432E-5	17079.4192997438	8.16502476096756E-4
15495.9478096478	7.09856985798078E-5	17069.7984056808	7.99292193200259E-4
15479.8761609907	7.72969901481702E-5	17059.8972994183	7.34129959656573E-4
15463.837815269	8.26991876650441E-5	17050.2983802217	7.88245699637058E-4
15448.0713082972	1.475158543387E-5	17040.7102568035	7.04579358829073E-4
15432.0987654321	7.47327737647232E-5	17030.842856413	6.65205932544933E-4
15420.200462606	6.11514579413642E-5	17021.2765957447	6.73760755835718E-4
15404.2854722184	5.10710440062339E-5	17011.7210758212	6.30893179848533E-4
15388.6401058738	1.41379441261053E-4	17001.8872094803	6.45642119589206E-4
15372.7901614143	5.45343610996667E-5	16992.3534409516	6.96161247346285E-4
15356.9728335151	8.79115087193495E-5	16982.8303585075	8.03630779141134E-4
15345.1900501788	8.67808958058709E-5	16973.0298555595	7.86408238625733E-4
15329.6644336455	1.27932406103931E-4	16963.5284139101	7.18393579958521E-4
15313.9356814701	7.84735043458573E-5	16954.0376040554	7.24845902583454E-4
15298.2391726712	6.59469630699245E-5	16944.2702949997	7.23593463533183E-4
15282.8083688659	4.03343017190855E-5	16934.8010160881	6.29470534880998E-4
15267.1755725191	8.08639402134272E-5	16925.3423150483	6.43106834521837E-4
15255.530129672	5.24105370995993E-5	16915.6080315307	5.6780777525756E-4
15239.9530609446	4.45950236120856E-5	16906.1707523246	4.80938637060125E-4
15224.6395566585	1.34448420157953E-5	16896.7439974317	4.76622454359183E-4
15209.1254752852	6.51571433235356E-5	16887.0425722343	6.23314095715105E-4
15193.6429797773	6.72534138266839E-6	16877.6371308017	5.72982948731326E-4
15178.4223547804	6.69952173530553E-5	16868.2421604845	4.94469919394548E-4
15166.9118650752	6.28838684788601E-5	16858.5734275166	4.57412450217319E-4
15151.5151515152	7.61467497167626E-5	16849.199663016	4.30846861948557E-4
15136.1496662479	4.89326671762576E-5	16839.836316791	4.15268127287947E-4
15121.0439568748	5.68543409179285E-5	16830.2001110793	4.32673672003602E-4
15105.7401812689	9.64113617472152E-5	16820.8578637511	3.81306489921347E-4
15090.4673517739	5.91607487090099E-5	16811.5259822134	3.60807121570259E-4
15079.0898261381	6.08203082280393E-5	16801.9221398928	3.50974599296891E-4
15064.0977358661	8.67822556132568E-5	16792.6112510495	3.29517023036469E-4
15048.9089541008	6.75907841335698E-5	16783.3106758639	2.98879724312441E-4
15033.7507704797	8.1333308201008E-5	16773.7390341681	3.30069139268021E-4
15018.8486550621	7.76042292796174E-5	16764.4593461861	3.89332289243775E-4
15003.7509377344	1.44525258077279E-4	16755.1899200777	3.37290139275174E-4
14992.5037481259	1.1921984789741E-4	16745.6503173301	3.31788655912667E-4
14977.4589243189	1.85196572441194E-4	16736.4016736402	2.78544329943871E-4
14962.6681429833	1.41261080047337E-4	16727.1632403861	3.03451993584526E-4
14947.6831091181	5.54806597615694E-5	16717.6555159904	2.80357350020431E-4
14936.5197908887	6.1270506385912E-5	16708.4377610693	2.58563841537988E-4
14921.5870599997	1.27102396205852E-4	16699.2301654894	2.51921145229129E-4
14906.9063697211	1.33662206368562E-4	16689.7541599212	2.25287380094779E-4
14892.0327624721	4.23826649914443E-5	16680.5671392827	1.79310391071709E-4
14877.1888064031	5.40552840758847E-5	16671.390227231	1.70025475010268E-4
14866.1304948935	9.62215793700103E-5	16661.9457820284	1.68625252191846E-4
14851.5586710825	7.02132008303194E-5	16652.7893422148	1.80852191507981E-4
14836.7952522255	8.46923992538487E-5	16643.6429605712	1.63480839524702E-4
14822.0611558243	5.46984560576161E-5	16634.2299183259	1.40076870815432E-4
14807.5755556543	8.43744280308424E-5	16625.1039068994	1.27177967000091E-4
14796.6204518888	1.19598481416174E-4	16615.9879035608	1.28523236047997E-4
14781.9660014782	8.09497998526409E-5	16606.6061079097	1.16605211922012E-4
14767.3405496404	7.48727122009203E-5	16597.510373444	1.12320924234628E-4
14752.9616570527	8.52095953800538E-5	16588.424597316	1.12623958165419E-4
14742.0871847036	1.09023779433856E-4	16579.0738929323	1.05495600943713E-4
14727.5405007364	7.09582087487867E-5	16570.0082850041	1.06155248417757E-4
14713.0224962114	9.19981709107877E-5	16560.9525859927	1.22642809046054E-4
14698.7491364485	3.23912721298082E-5	16551.6328185776	1.4435329261422E-4
14684.2878120411	1.10151346746941E-4	16542.5971877585	1.14753065884857E-4
14669.8549151349	7.6777285241859E-5	16533.5714167617	1.31478673806268E-4
14659.1025697407	5.32555175353711E-5	16524.2824330353	1.5888821706459E-4
14644.9335852262	4.71046461590707E-5	16515.2766308836	1.95764947584065E-4
14630.5779078274	5.52235391951048E-5	16506.2806397834	2.58691896300516E-4
14616.2503471359	5.43836591869668E-5	16497.0222874771	3.46126357165288E-4
14602.1640407108	1.87795887343972E-5	16488.0461665293	3.04863928089444E-4
14587.8920495988	4.52573649682056E-5	16479.0798081835	2.65085744472751E-4
14577.2594752187	3.26815087090967E-5	16469.8519360311	2.80569768357952E-4
14563.0361017665	6.47731175850991E-5	16460.9053497942	3.15318642688331E-4
14549.0521292538	4.34698372980723E-5	16451.9684780284	3.02224082148023E-4
14534.8837209302	7.01395915366452E-5	16442.7709357581	2.73793648566566E-4
14520.7428812058	5.08588565027457E-5	16433.8537387017	3.38515976374442E-4
14506.8399750482	6.15463415258882E-5	16424.9462083012	3.82880659078068E-4
14496.3251815665	6.05466547261559E-5	16415.7788466274	3.60545802227666E-4
14482.2592324403	8.45930738527219E-5	16406.8908941756	2.71117183755747E-4
14468.2205535541	5.61238163128982E-5	16398.0125608776	2.82720651925258E-4
14454.4179928595	9.48529683894687E-5	16388.8752314929	2.92819529445633E-4
14440.4332129964	4.34199754263125E-5	16380.0163800164	2.18549013306339E-4
14430.0144300144	6.16355877484036E-5	16371.1671005026	1.42826882428365E-4
14416.0768088572	8.74515159426191E-5	16362.0596560695	9.79425458413918E-5
14402.3735111546	4.05241666625671E-5	16353.2297628782	1.11918764711658E-4
14388.4892086331	6.15624906234525E-5	16344.4093947665	1.00944749058837E-4
14374.631650064	7.1416490077743E-5	16335.3316889099	8.68909302017151E-5
14361.0069938104	7.60765531537538E-5	16326.5306122449	9.16975586463777E-5
14350.7024668858	2.87670673449071E-5	16317.7390140822	9.92616553493364E-5
14336.917562724	4.50621899135577E-5	16308.6909013813	8.51834869900418E-5
14323.1591159746	5.27726444356532E-5	16299.9185004075	1.06844833644657E-4
14309.6318131734	6.24047747969267E-5	16291.1555316619	8.72776011939671E-5
14295.9256611866	3.64178089242163E-5	16282.1368676425	9.66189362293346E-5
		16273.393002441	7.61222754340556E-5
		16264.6585234943	9.65645519331827E-5
		16255.6691646212	9.10196390604097E-5
		16246.953696182	1.0011160367357E-4
		16238.2475683224	8.24318579584513E-5
		16229.2873719915	9.86825887840378E-5
		16220.600162206	1.01429499639682E-4
		16211.9222476209	1.32795610719921E-4
		16202.9910721519	1.1938768971323E-4
		16194.3319838057	1.10526256245389E-4
		16185.682145574	1.5251930180402E-4
		16176.779850203	1.50473776808459E-4
		16168.1487469685	1.48881560833246E-4
		16159.5268490539	1.45755757420478E-4
		16150.6532939257	1.53789395837893E-4
		16142.0500403551	1.49271824418026E-4
		16133.4559475985	1.70805480538413E-4
		16124.6109937598	2.05602077015725E-4
		16116.035455278	1.99487716300074E-4
		16107.4690333908	1.79564674326111E-4
		16098.6525427822	1.77052467841188E-4
		16090.1045856798	1.45199842833317E-4
		16081.5657012367	1.66368287607589E-4
		16072.7775366861	1.78926105423974E-4
		16064.2570281125	2.47220403151139E-4
		16055.7455485445	2.90360330173733E-4
		16046.98557376	2.73905984760466E-4
		16038.4923817161	2.93960988179578E-4
		16030.0081753042	3.49750973267616E-4
		16021.2762548665	4.26032425837779E-4
		16012.8102481986	4.33250670823225E-4
		16004.3531840661	4.56598604839616E-4
		15995.6491834221	4.41617207892367E-4
		15987.2102318145	4.05334063321198E-4
		15978.7801799211	3.15484118418931E-4
		15970.1039653768	2.49948960341552E-4
		15961.6919393456	3.05424173547577E-4
		15953.28877048	3.23770829612814E-4
		15944.6402091937	3.20735342694281E-4
		15936.2549800797	2.82664451742174E-4
		15927.8785658538	2.80939901463036E-4
		15919.257525829	2.78828852347583E-4
		15910.8989657916	2.65808607081582E-4
		15902.5491786333	3.09168066922612E-4
		15893.9555287124	3.44030338071519E-4
		15885.6235107228	3.80178765273798E-4
		15877.3002238699	3.35284852031661E-4
		15868.7338337274	3.20174817219402E-4
		15860.4282315623	3.38779346674038E-4
		15852.1313190558	3.31141235083368E-4
		15843.5920591917	3.7488371263772E-4
		15835.3127474268	4.20592813478058E-4
		15827.0420841049	4.48566266586376E-4
		15818.529825838	4.90506466594058E-4
		15810.2766798419	5.95058524570104E-4
		15802.0321413334	6.67332179197882E-4
		15793.5467567952	8.10628685602832E-4
		15785.319652723	9.76522260250689E-4
		15777.101115441	0.00121383816081374
		15768.6424775691	0.00134422236375262
		15760.4412923562	0.00129402807452255
		15752.2486334924	0.00116546566998374
		15743.8166160241	0.00113294991712635
		15735.64122738	0.0011094828636381
		15727.4743248982	9.31759776827118E-4
		15719.0688023641	6.94650769198461E-4
		15710.9190887667	4.93687003692867E-4
		15702.7778213966	3.27687255837525E-4
		15694.398669115	2.45881210173047E-4
		15686.2745098039	2.18894615217464E-4
		15678.1587570356	1.6066548372082E-4
		15669.8058511055	9.65110844401179E-5
		15661.7071260767	8.73279266554674E-5
		15653.6167681543	7.94731538085788E-5
		15645.2899854499	7.89172795828609E-5
		15637.2165754496	8.61273703995305E-5
		15629.1514933654	4.97468037530035E-5
		15620.8507115298	6.33265539454375E-5
		15612.8024980484	6.18223613573972E-5
		15604.7625735374	2.56771571060826E-5
		15596.4876709765	3.13537428356132E-5
		15588.4645362432	5.25523388518803E-5
		15580.4496517769	3.03456198368256E-5
		15572.2005076537	1.92545452973906E-5
		15564.2023346304	4.37615077136903E-5
		15556.2123734113	4.81783395904953E-5
		15547.98886764	4.69956173567404E-5
		15540.0155400155	5.01241635313866E-5
		15532.0503859715	6.20007898056323E-5
		15523.8523992114	3.18530015135727E-5
		15515.9038013964	4.37037384205076E-5
		15507.9633391747	2.71071628348816E-5
		15499.7907528248	3.85207319319654E-5
		15491.8667699458	7.21943197981661E-5
		15483.9508849078	4.13371894847302E-5
		15475.8035811009	5.18898731707916E-5
		15467.9040989946	4.05638349156333E-5
		15460.0126772104	4.56223956911555E-5
		15451.8905388074	3.11258042447369E-5
		15444.0154440154	4.49983755392409E-5
		15436.1483722582	3.10683628773943E-5
		15428.0512828425	2.86883926571699E-5
		15420.200462606	3.13575636016575E-5
		15412.3576283464	4.35070436007916E-5
		15404.2854722184	3.57847841937615E-5
		15396.4588144727	7.26787023455192E-6
		15388.6401058738	4.94383383335852E-5
		15380.5927680453	4.83108258006114E-5
		15372.7901614143	4.74520666683002E-5
		15364.9954673263	1.70550036372311E-5
		15356.9728335151	2.40278350223858E-5
		15349.1941673062	5.6382537031576E-5
		15341.4233772609	5.65570302378444E-5
		15333.4253338853	3.98606300760922E-5
		15325.6704980843	3.64682704643509E-5
		15317.92350229	3.47157108521893E-5
		15309.9499364637	3.71028638314049E-5
		15302.2188217292	4.15601134943171E-5
		15294.4955110656	4.32976697399335E-5
		15286.546310592	2.14767378406605E-5
		15278.8388082506	6.17435857310282E-5
		15271.1390742635	6.09819307819849E-5
		15263.214127631	5.56927135559161E-5
		15255.530129672	3.96825669092636E-5
		15247.8538645686	3.78418089134086E-5
		15239.9530609446	4.23248990296068E-5
		15232.2924600152	5.47370539368594E-5
		15224.6395566585	3.92614047025897E-5
		15216.7627858849	4.25207332038108E-5
		15209.1254752852	4.99169286186772E-5
		15201.4958271894	2.80376977628886E-5
		15193.6429797773	4.26102452240484E-5
		15186.0288534548	5.73536585267401E-5
		15178.4223547804	4.64914891929112E-5
		15170.5933219048	3.94918300870323E-5
		15163.0022744503	4.71288170153913E-5
		15155.4188199991	5.40710644821999E-5
		15147.6134934941	3.41622593447272E-5
		15140.0454201363	5.07730465759118E-5
		15132.4849053463	4.55255581105129E-5
		15124.7031777001	5.30748194613256E-5
		15117.1579743008	2.79474363394352E-5
		15109.620295242	4.2661831946109E-5
		15101.8620595919	3.17796675495133E-5
		15094.3396226415	3.58925184260562E-5
		15086.8246760104	6.20772575016035E-5
		15079.0898261381	5.71512233868709E-5
		15071.5900527506	5.75959218778263E-5
		15064.0977358661	5.11225234359969E-5
		15056.3861661924	4.27687472776196E-5
		15048.9089541008	3.78442618668631E-5
		15041.4391648993	3.24417707025217E-5
		15033.7507704797	4.93295882695465E-5
		15026.2960180316	4.56825740891338E-5
		15018.8486550621	3.23122160719443E-5
		15011.183331582	6.27564079827048E-5
		15003.7509377344	5.78041124429098E-5
		14996.3259001545	7.22291691875166E-5
		14988.6835439243	6.74810469274228E-5
		14981.2734082397	3.09920184033214E-5
		14973.8705958103	4.4885527968699E-5
		14966.251103761	4.09710711852536E-5
		14958.8631264024	3.83639062170613E-5
		14951.4824394839	5.87127244478955E-5
		14943.8857091621	8.76324384673195E-5
		14936.5197908887	5.70526738335107E-5
		14929.1611304361	7.2344592279829E-5
		14921.5870599997	3.91237439477915E-5
		14914.2431021626	4.91923725571196E-5
		14906.9063697211	1.53577424981413E-5
		14899.3548579347	2.50936842268995E-5
		14892.0327624721	3.20006915037047E-5
		14884.717860173	5.51608617418952E-5
		14877.1888064031	6.09250931435637E-5
		14869.8884758364	6.37204884063529E-5
		14862.5953063924	6.36559189330756E-5
		14855.0886106036	5.17066189438349E-5
		14847.8099480327	3.96335942603728E-5
		14840.5384147337	5.54603222139371E-5
		14833.0539774834	6.13982355749219E-5
		14825.7968865827	5.36000296520518E-5
		14818.5468932916	6.20801135621381E-5
		14811.0846157264	5.00944286311755E-5
		14803.8490007402	5.70649641075064E-5
		14796.6204518888	3.73122756340962E-5
		14789.1802357395	3.49459870042971E-5
		14781.9660014782	2.92608078772449E-5
		14774.7588020626	3.63359238784395E-5
		14767.3405496404	3.10638516295847E-5
		14760.147601476	1.70585286181014E-5
		14752.9616570527	2.55844439698511E-5
		14745.5652712447	3.17057563810333E-5
		14738.3935151069	3.40201009136323E-5
		14731.2287317885	3.99609849701764E-5
		14723.8541160534	4.56129522323998E-5
		14716.7034584253	2.8461967512457E-5
		14709.5597428769	2.68387718466372E-5
		14702.2068012409	3.58657169340579E-5
		14695.077149155	4.06265881941185E-5
		14687.9544085895	2.84755122146065E-5
		14680.6230456421	4.93044718228913E-5
		14673.5143066764	6.98638868687625E-5
		14666.4124488509	5.8099372476951E-5
		14659.1025697407	1.80090033203075E-5
		14652.0146520147	4.32467239752526E-5
		14644.9335852262	4.33911187053516E-5
		14637.645095657	2.73964935603804E-5
		14630.5779078274	4.14453137481609E-5
		14623.5175409093	3.97656425811552E-5
		14616.2503471359	5.43912117630394E-5
		14609.203798393	3.74725775766704E-5
		14602.1640407108	4.43460214769221E-5
		14594.9180495352	2.11999222771878E-5
		14587.8920495988	4.08505052412576E-5
		14580.8728110465	4.54114736194887E-5
		14573.6479298133	4.18577847561561E-5
		14566.6423889294	5.10865539780905E-5
		14559.6435799252	3.61173952106899E-5
		14552.4397165185	4.63708373856969E-5
		14545.4545454545	6.14142879953825E-5
		14538.4760769376	4.29672908356873E-5
		14531.2931397765	1.8271611661628E-5
		14524.3282498184	4.57528796952658E-5
		14517.3700332448	7.0217256901394E-5
		14510.2079312797	5.63906103714821E-5
		14503.2632342277	5.30175186568828E-5
		14496.3251815665	6.43573983790204E-5
		14489.1838242752	6.42583918959793E-5
		14482.2592324403	6.15335861605517E-5
		14475.3412561701	4.79213301682525E-5
		14468.2205535541	1.98819914630591E-5
		14461.3159797542	2.67755342447573E-5
		14454.4179928595	4.36817081827797E-5
		14447.3178554401	5.77646696735533E-5
		14440.4332129964	6.09161612303556E-5
		14433.5551289638	6.16675120474469E-5
		14426.4754677785	3.81143907334381E-5
		14419.6106705119	4.14712333732018E-5
		14412.7524033265	4.83390291686768E-5
		14405.6931299249	6.99596256088093E-5
		14398.8480921526	4.00870674811425E-5
		14392.0095562943	6.51468882789188E-5
		14384.9705827352	4.69310331882738E-5
		14378.1452192667	4.58295434951906E-5
		14371.326329707	4.53021958692251E-5
		14364.3075685537	4.51588022390295E-5
		14357.5017946877	7.25739515601262E-5
		14350.7024668858	5.46983279008235E-5
		14343.7038312033	6.13082043405158E-5
		14336.917562724	6.62131802898E-5
		14330.1377126234	7.77954718497494E-5
		14323.1591159746	9.0431460198257E-5
		14316.3922691482	3.3319970687992E-5
		14309.6318131734	7.77525728698437E-5
		14302.6731696154	7.66005674731108E-5
		14295.9256611866	6.32096016895486E-5
		14289.1845162397	6.5366304024232E-5
